ATR-42

22.71, 24.55, 7.62

0.0    ,    0.0
-1.7524077892303467    ,    0.14978758990764618
-1.7524077892303467    ,    0.14978769421577454
-1.794370174407959    ,    -0.17916423082351685
-1.7943700551986694    ,    -0.1791641116142273
-1.8924636840820312    ,    -0.28266891837120056
-1.8924635648727417    ,    -0.2826688289642334
-2.006525993347168    ,    -0.3141131103038788
-2.006525754928589    ,    -0.31411299109458923
-2.13122296333313    ,    -0.2834390699863434
-2.13122296333313    ,    -0.28343895077705383
-2.2251341342926025    ,    -0.18973955512046814
-2.2251341342926025    ,    -0.1897394359111786
-2.301572799682617    ,    0.1439390629529953
-2.301572799682617    ,    0.14393918216228485
-4.111709117889404    ,    -0.01935729943215847
-4.111709117889404    ,    -0.019357187673449516
-4.111709117889404    ,    0.2649008631706238
-4.111709117889404    ,    0.26490098237991333
-2.311509370803833    ,    0.1873157024383545
-2.311509370803833    ,    0.18731582164764404
-2.3463363647460938    ,    0.339345782995224
-2.3463361263275146    ,    0.33934590220451355
-2.5920560359954834    ,    1.2303797006607056
-2.5920560359954834    ,    1.2303798198699951
-2.594566822052002    ,    2.155900239944458
-2.594566583633423    ,    2.155900239944458
-4.31454610824585    ,    2.155900239944458
-4.31454610824585    ,    2.155900239944458
-4.397830963134766    ,    1.7320408821105957
-4.397830963134766    ,    1.7320410013198853
-4.622772693634033    ,    1.4035354852676392
-4.622772693634033    ,    1.4035356044769287
-4.622772693634033    ,    -3.97050142288208
-4.622772693634033    ,    -3.97050142288208
-5.0305070877075195    ,    -5.444468975067139
-5.0305070877075195    ,    -5.444468975067139
-5.421629905700684    ,    -6.109588146209717
-5.421629905700684    ,    -6.109588146209717
-6.062150955200195    ,    -6.543785095214844
-6.062150955200195    ,    -6.5437846183776855
-6.702672004699707    ,    -6.109588146209717
-6.702672004699707    ,    -6.109588146209717
-7.093795299530029    ,    -5.444468975067139
-7.093794822692871    ,    -5.444468975067139
-7.501529693603516    ,    -3.97050142288208
-7.501529216766357    ,    -3.97050142288208
-7.501529693603516    ,    1.4035354852676392
-7.501529216766357    ,    1.4035356044769287
-7.727609157562256    ,    1.7263600826263428
-7.727609157562256    ,    1.7263602018356323
-7.809756278991699    ,    2.155900239944458
-7.809755802154541    ,    2.155900239944458
-9.529735565185547    ,    2.155900239944458
-9.529735565185547    ,    2.155900239944458
-9.532246589660645    ,    1.2303797006607056
-9.532245635986328    ,    1.2303798198699951
-9.777965545654297    ,    0.339345782995224
-9.777965545654297    ,    0.33934590220451355
-9.812792778015137    ,    0.1873157024383545
-9.812792778015137    ,    0.18731582164764404
-8.012593269348145    ,    0.2649008631706238
-8.012593269348145    ,    0.26490098237991333
-8.012593269348145    ,    -0.01935729943215847
-8.012593269348145    ,    -0.019357187673449516
-9.831787109375    ,    0.10439982265233994
-9.831787109375    ,    0.10439992696046829
-9.899168014526367    ,    -0.18973955512046814
-9.899168014526367    ,    -0.1897394359111786
-10.000892639160156    ,    -0.2875986397266388
-10.000892639160156    ,    -0.28759855031967163
-10.117775917053223    ,    -0.3141131103038788
-10.117775917053223    ,    -0.31411299109458923
-10.245393753051758    ,    -0.2744242250919342
-10.245393753051758    ,    -0.27442413568496704
-10.32993221282959    ,    -0.17916423082351685
-10.32993221282959    ,    -0.1791641116142273
-10.374533653259277    ,    0.12162736058235168
-10.374533653259277    ,    0.12162746489048004
-12.12430191040039    ,    1.105742910567642E-7
-12.12430191040039    ,    0.0
-12.12430191040039    ,    0.3301575183868408
-12.12430191040039    ,    0.33015763759613037
-10.379020690917969    ,    0.2056492567062378
-10.379019737243652    ,    0.20564936101436615
-10.39586353302002    ,    0.3376893699169159
-10.39586353302002    ,    0.33768945932388306
-10.605073928833008    ,    1.2464632987976074
-10.605073928833008    ,    1.246463418006897
-10.605073928833008    ,    2.1523327827453613
-10.605073928833008    ,    2.1523327827453613
-17.838726043701172    ,    2.7715189456939697
-17.838726043701172    ,    2.771519184112549
-18.428720474243164    ,    3.523129940032959
-18.428720474243164    ,    3.523130178451538
-18.428720474243164    ,    4.329737186431885
-18.428720474243164    ,    4.329737186431885
-7.759841442108154    ,    4.8188676834106445
-7.759840965270996    ,    4.818868160247803
-7.666518688201904    ,    5.13887357711792
-7.666518688201904    ,    5.13887357711792
-7.455972671508789    ,    5.446984767913818
-7.455972671508789    ,    5.446985244750977
-7.455972671508789    ,    8.75580883026123
-7.455972671508789    ,    8.75580883026123
-6.600625038146973    ,    14.037677764892578
-6.600625038146973    ,    14.037677764892578
-9.467780113220215    ,    14.500322341918945
-9.467779159545898    ,    14.500322341918945
-9.73377799987793    ,    15.218194007873535
-9.73377799987793    ,    15.218194007873535
-9.73377799987793    ,    15.772339820861816
-9.73377799987793    ,    15.772339820861816
-8.429118156433105    ,    15.772339820861816
-8.429118156433105    ,    15.772339820861816
-6.33918571472168    ,    15.772339820861816
-6.33918571472168    ,    15.772339820861816
-6.19131326675415    ,    16.22374725341797
-6.19131326675415    ,    16.22374725341797
-6.062150955200195    ,    16.402292251586914
-6.062150955200195    ,    16.402292251586914
-5.9416093826293945    ,    16.238252639770508
-5.9416093826293945    ,    16.238252639770508
-5.785116195678711    ,    15.772339820861816
-5.785116195678711    ,    15.772339820861816
-3.6951842308044434    ,    15.772339820861816
-3.6951842308044434    ,    15.772339820861816
-2.390523672103882    ,    15.772339820861816
-2.390523672103882    ,    15.772339820861816
-2.390523672103882    ,    15.218194007873535
-2.390523672103882    ,    15.218194007873535
-2.656522512435913    ,    14.500322341918945
-2.656522274017334    ,    14.500322341918945
-5.523677349090576    ,    14.037677764892578
-5.523676872253418    ,    14.037677764892578
-4.668329238891602    ,    8.75580883026123
-4.668329238891602    ,    8.75580883026123
-4.668329238891602    ,    5.446984767913818
-4.668329238891602    ,    5.446985244750977
-4.475207328796387    ,    5.179300785064697
-4.475207328796387    ,    5.179300785064697
-4.3644609451293945    ,    4.8188676834106445
-4.3644609451293945    ,    4.818868160247803
6.304418087005615    ,    4.329737186431885
6.304418087005615    ,    4.329737186431885
6.304418087005615    ,    3.523129940032959
6.304418087005615    ,    3.523130178451538
5.714423656463623    ,    2.7715189456939697
5.714424133300781    ,    2.771519184112549
-1.5192277431488037    ,    2.1523327827453613
-1.5192277431488037    ,    2.1523327827453613
-1.5192277431488037    ,    1.218275547027588
-1.5192277431488037    ,    1.2182756662368774
-1.728438377380371    ,    0.3376893699169159
-1.7284382581710815    ,    0.33768945932388306
-1.749768614768982    ,    0.17047740519046783
-1.7497684955596924    ,    0.1704775094985962
-1.1131943011832846E-7    ,    0.3301575183868408
-0.0    ,    0.33015763759613037
-1.1131943011832846E-7    ,    -1.105742910567642E-7
0.0    ,    0.0
